#HydraHarp 400  Histogram Data			07/09/2021 04:48:03 PM
#channels per curve
65536
#display curve no.
0	1	2	3	4	5	6	7	
#memory block no.
0	4	8	12	16	20	24	28	
#ns/bin
0.0040	0.0040	0.0040	0.0040	0.1280	0.1280	0.1280	0.1280	
#counts
0	0	0	1	28	17	33	32	
0	0	0	0	31	24	33	41	
0	0	0	2	11	11	11	17	
0	0	1	1	10	7	7	12	
0	0	0	0	6	3	6	9	
0	0	0	0	4	7	6	7	
0	0	0	0	10	10	9	16	
0	0	0	0	21	16	24	29	
1	1	0	1	55	43	66	65	
1	1	0	0	109	96	133	175	
2	2	0	0	267	247	282	372	
4	4	0	0	525	452	598	691	
1	4	0	0	1141	994	1228	1507	
1	1	0	0	3075	2628	3280	3677	
3	4	1	0	7683	6243	7969	8390	
3	3	0	1	10774	8884	11547	11896	
4	0	1	0	5125	4241	5383	5881	
1	2	1	0	2032	1720	2122	2455	
1	3	0	0	830	699	904	1095	
1	1	0	0	381	368	451	525	
0	0	0	1	194	191	233	280	
0	1	2	2	82	76	99	97	
0	0	1	0	24	37	32	52	
0	0	0	0	18	13	21	21	
0	0	0	1	8	10	7	8	
0	0	0	2	4	3	6	7	
0	0	1	0	8	8	2	4	
0	0	0	1	13	15	11	9	
0	0	1	1	30	25	30	21	
0	0	1	0	46	23	45	42	
0	0	0	0	11	16	19	14	
0	0	0	0	9	7	10	21	
0	0	0	0	12	6	15	14	
0	0	0	0	16	4	6	18	
0	0	0	1	4	2	3	3	
0	0	1	0	2	2	2	4	
0	0	0	0	0	1	4	2	
0	0	0	0	1	0	1	0	
0	0	0	2	0	0	1	1	
0	1	0	0	0	0	0	0	
0	0	0	0	2	0	0	0	
0	0	0	0	1	1	0	1	
0	0	0	0	1	1	0	1	
0	0	0	0	2	2	1	9	
0	0	0	0	5	5	3	3	
0	0	0	0	1	1	1	3	
0	0	0	0	0	0	2	0	
0	0	0	0	0	1	2	3	
0	0	0	0	1	2	1	1	
0	0	0	0	0	2	1	0	
0	0	0	0	1	0	2	0	
0	0	0	0	1	0	0	5	
0	0	0	1	1	0	2	4	
0	0	0	0	1	0	0	3	
0	0	0	0	0	0	0	2	
2	0	0	0	0	0	0	0	
1	1	0	0	0	0	0	0	
0	1	0	0	1	0	0	0	
3	4	0	0	0	0	0	0	
3	1	0	0	0	1	0	1	
4	4	0	0	0	0	0	1	
4	6	0	2	0	0	0	1	
8	4	0	0	0	0	0	0	
7	7	1	0	0	0	0	0	
8	9	1	2	0	0	0	0	
18	10	0	0	0	0	0	0	
7	12	1	0	1	0	0	0	
3	5	0	0	0	0	0	0	
1	7	1	0	0	0	0	0	
5	5	0	0	0	0	0	0	
4	0	0	1	0	0	0	0	
1	2	0	0	0	0	0	3	
0	1	0	1	0	0	0	4	
0	0	0	0	1	0	0	2	
1	0	0	0	4	1	0	1	
0	0	0	0	1	1	2	0	
0	0	0	1	1	0	0	1	
0	0	0	0	4	0	1	2	
0	0	1	0	4	2	1	3	
1	0	0	0	1	1	1	2	
0	0	0	0	3	1	2	2	
0	0	0	0	2	2	2	5	
0	0	0	1	2	2	2	4	
0	0	0	0	1	0	0	0	
0	0	0	0	3	0	0	4	
0	0	0	0	0	0	1	0	
0	0	0	0	1	0	0	0	
1	0	1	0	1	1	2	1	
0	0	0	0	1	0	1	2	
0	0	0	0	2	1	1	1	
0	0	0	0	3	0	4	3	
0	0	0	0	10	4	10	5	
0	0	0	0	9	2	8	11	
0	0	0	0	8	8	11	12	
0	0	0	0	9	8	9	15	
0	0	1	0	19	16	22	20	
0	0	0	0	36	33	41	43	
0	0	0	0	20	22	15	16	
0	0	0	0	10	11	13	8	
0	0	1	0	5	4	5	6	
0	0	0	0	4	8	7	8	
0	0	0	0	11	11	12	18	
0	0	0	1	19	17	26	30	
0	0	0	0	39	51	29	54	
0	0	0	0	94	105	89	126	
0	0	0	0	240	195	213	318	
1	0	0	0	460	368	525	622	
0	0	0	0	998	844	1040	1255	
1	1	0	0	2335	1994	2569	2852	
0	0	0	0	6098	5012	6373	6767	
0	0	0	0	11702	9647	12371	12783	
0	2	0	0	7282	5951	7547	8018	
0	3	0	0	2817	2431	2997	3462	
0	0	0	0	1090	975	1231	1412	
0	9	0	0	592	444	566	691	
0	12	0	0	255	241	267	357	
0	15	0	0	114	109	147	145	
0	19	0	0	49	30	41	72	
0	22	0	0	22	25	18	35	
0	27	0	0	13	7	11	15	
0	30	0	0	8	5	10	9	
0	25	0	0	7	2	3	11	
0	18	0	0	11	11	8	12	
0	24	0	0	22	16	17	19	
0	14	0	0	49	43	40	53	
0	13	0	0	30	20	19	27	
0	4	0	0	6	6	11	15	
0	2	0	0	6	8	10	17	
0	0	0	0	8	5	6	21	
0	0	0	0	7	1	2	16	
0	1	0	0	2	1	6	7	
0	0	0	0	1	0	2	5	
0	0	0	0	1	0	2	3	
0	0	0	0	1	1	0	2	
0	0	0	0	1	0	0	0	
0	0	0	0	0	0	1	1	
0	1	0	0	1	0	0	1	
1	0	0	0	1	0	0	3	
0	0	0	0	3	2	0	0	
0	0	0	0	4	6	3	4	
0	1	0	0	2	2	4	3	
0	0	0	0	1	1	2	1	
0	0	0	1	1	0	3	1	
0	0	0	0	2	0	0	4	
0	0	1	0	1	2	0	1	
0	0	0	0	0	0	0	0	
0	0	0	0	3	1	1	3	
0	0	0	1	0	0	1	2	
0	0	0	0	1	0	2	4	
0	0	0	0	0	1	0	3	
0	0	0	0	0	1	0	0	
0	0	0	0	0	0	0	0	
0	0	0	0	0	0	0	0	
0	0	0	0	0	0	0	0	
0	0	0	0	0	0	0	0	
0	0	0	0	0	0	0	0	
0	0	0	0	0	0	0	0	
0	0	0	0	0	0	0	0	
0	0	0	0	0	0	0	1	
0	0	0	0	0	0	1	1	
0	0	1	0	1	0	0	0	
0	0	0	0	0	1	1	0	
0	0	0	0	0	0	0	1	
0	0	0	0	0	0	0	0	
0	0	0	0	0	0	0	1	
0	0	0	0	0	0	0	1	
0	0	0	0	1	0	0	2	
0	0	0	0	0	0	1	0	
0	0	0	0	0	0	2	0	
0	0	0	0	1	1	1	0	
0	0	0	0	0	0	0	2	
0	0	0	0	0	0	0	0	
0	0	0	0	1	0	0	0	
0	0	0	0	2	1	1	0	
0	0	0	0	1	0	5	3	
0	0	0	1	2	0	1	1	
0	0	0	0	6	5	7	1	
0	0	0	0	9	4	2	3	
0	0	0	0	0	1	2	0	
0	0	1	0	1	0	1	4	
0	0	0	0	0	1	0	1	
0	0	0	0	0	0	1	0	
0	0	0	1	2	0	0	2	
0	0	0	0	0	0	1	1	
0	0	0	0	0	1	3	6	
0	0	0	0	3	3	4	5	
0	0	0	0	5	3	6	12	
0	0	0	0	12	1	12	24	
0	0	0	0	14	12	6	26	
0	0	0	0	10	3	17	21	
0	0	0	0	17	10	19	22	
0	0	0	0	39	39	31	38	
0	0	0	0	34	26	32	31	
0	0	0	0	20	11	11	13	
0	0	0	0	6	4	7	6	
0	0	0	0	5	5	11	8	
0	1	0	0	8	10	9	12	
0	0	0	0	17	8	14	17	
0	0	0	0	21	27	37	44	
0	0	0	0	77	80	90	109	
0	0	0	0	185	172	185	233	
0	0	0	0	363	322	427	571	
0	0	0	0	801	668	850	1097	
0	0	0	0	1859	1567	2042	2299	
1	0	1	0	4855	4070	5208	5580	
0	0	0	0	11181	9095	11801	12412	
0	0	0	0	9859	8261	10467	10962	
0	0	0	0	4145	3445	4392	4729	
0	0	0	0	1653	1317	1719	2010	
0	0	0	0	737	614	761	879	
0	0	0	0	342	290	371	406	
0	0	0	0	143	156	162	221	
0	0	0	0	51	68	71	96	
0	0	0	0	32	30	34	32	
0	0	0	0	11	7	13	22	
0	0	0	0	11	9	6	10	
0	0	0	0	6	4	5	6	
0	0	0	0	9	5	5	8	
0	0	0	0	17	11	12	17	
0	0	0	0	35	34	32	38	
0	0	0	0	44	27	35	35	
0	3	0	0	13	15	22	18	
1	4	0	0	10	5	11	23	
5	5	0	0	13	6	11	23	
10	10	0	0	10	4	11	12	
12	13	0	0	6	0	0	5	
13	22	0	0	1	1	6	2	
10	23	0	0	2	0	1	2	
14	14	0	0	0	1	0	3	
17	18	0	0	3	0	2	2	
9	13	0	0	1	0	1	1	
11	13	1	0	1	0	0	0	
11	14	0	0	0	1	0	1	
10	3	0	0	5	0	1	4	
9	7	0	0	4	2	3	3	
2	3	0	0	2	3	4	4	
0	0	0	0	1	0	1	0	
0	2	0	0	1	1	0	5	
1	0	0	0	0	2	2	2	
0	0	0	0	1	2	3	3	
0	0	0	0	2	1	0	2	
0	0	1	1	0	0	0	0	
0	0	0	0	1	0	2	1	
0	0	0	1	0	1	0	2	
0	0	0	0	0	1	0	1	
0	0	0	0	1	0	1	2	
0	0	0	0	0	0	0	1	
0	0	0	0	0	0	0	0	
1	0	2	0	0	0	0	0	
0	0	0	1	0	0	0	0	
0	0	0	1	0	0	0	0	
0	0	0	1	0	0	0	1	
0	0	0	0	0	0	0	0	
0	1	1	0	0	0	0	1	
0	0	0	0	0	1	1	0	
0	0	0	0	0	0	0	1	
0	0	0	0	0	0	1	2	
0	0	0	0	0	1	0	0	
0	0	1	0	0	0	0	0	
0	0	0	1	0	0	0	0	
0	0	1	0	0	0	0	0	
0	0	0	0	0	0	0	1	
0	0	2	0	2	1	0	4	
0	0	0	0	0	1	0	2	
0	0	0	0	0	0	1	1	
0	0	1	0	1	0	1	4	
0	0	0	2	0	0	1	3	
0	0	2	3	1	0	1	0	
0	0	2	1	1	0	0	3	
0	0	1	2	2	0	0	3	
0	0	0	3	1	1	0	3	
0	0	0	2	3	0	4	2	
0	0	2	2	3	0	3	4	
0	0	3	1	0	2	2	3	
0	0	2	0	3	0	1	1	
0	0	2	2	1	0	0	1	
0	0	0	0	1	0	0	0	
0	0	2	1	2	1	0	0	
0	0	1	0	1	0	2	0	
0	0	1	1	0	0	4	0	
0	0	0	1	2	0	3	4	
0	0	0	2	4	1	3	5	
0	0	1	1	6	2	8	10	
0	0	0	1	4	9	14	28	
0	0	0	2	16	5	15	29	
0	0	0	1	15	5	16	22	
0	0	1	0	34	31	40	25	
0	0	0	0	52	29	41	25	
0	0	0	0	21	17	16	14	
0	0	1	1	11	4	7	11	
0	0	1	0	2	6	2	4	
0	0	0	0	4	12	8	16	
0	0	0	0	14	15	14	17	
0	0	0	0	32	25	32	36	
0	0	0	2	54	57	59	89	
0	0	1	0	145	153	127	188	
0	0	0	0	334	299	347	431	
0	0	2	0	664	572	681	807	
0	0	0	1	1496	1225	1497	1894	
0	0	0	2	3735	3263	3973	4313	
0	0	0	0	9150	7569	9781	10125	
0	0	0	0	12429	10241	13317	13770	
0	0	0	0	5811	5021	6008	6613	
0	0	0	0	2279	1899	2295	2742	
0	0	0	0	907	783	958	1205	
0	0	1	0	448	421	472	601	
0	0	0	0	224	192	251	263	
0	0	0	0	92	79	93	115	
0	0	0	0	51	24	45	56	
0	0	0	0	14	11	20	21	
0	0	0	0	14	12	10	11	
0	0	1	1	4	9	10	9	
0	0	0	0	6	6	5	12	
0	0	1	0	16	9	7	11	
0	0	0	0	36	24	36	36	
0	0	0	0	56	52	43	53	
0	0	0	0	19	11	9	19	
0	0	0	0	9	10	13	16	
0	0	0	0	13	7	9	13	
0	0	0	0	7	3	11	22	
0	0	0	0	5	2	8	8	
0	0	0	0	2	1	2	6	
0	0	0	0	2	1	2	2	
0	0	0	1	0	1	5	0	
0	0	1	0	0	1	0	1	
1	0	0	0	0	0	0	0	
0	0	0	0	1	0	1	0	
0	0	0	1	4	1	2	2	
0	0	0	0	2	1	1	1	
0	0	0	0	5	3	2	2	
0	0	0	0	3	4	8	5	
0	0	0	0	1	0	1	3	
0	0	0	0	1	0	3	3	
0	0	0	0	1	0	1	4	
0	0	0	0	4	1	3	1	
0	0	0	0	3	0	0	4	
0	0	0	0	0	0	2	1	
0	0	0	0	3	1	2	0	
0	0	0	0	2	1	5	0	
0	0	0	0	2	0	0	2	
0	0	0	2	0	0	0	0	
0	0	1	0	0	0	0	0	
0	0	0	0	0	0	0	0	
0	0	0	0	0	0	0	0	
0	0	0	0	0	0	0	0	
0	0	0	0	0	0	0	0	
0	0	0	0	0	0	0	0	
0	0	0	1	0	0	1	0	
0	0	0	0	0	0	1	0	
0	0	0	0	0	0	0	1	
0	0	0	0	0	0	1	0	
0	0	0	0	0	0	0	0	
0	0	0	0	0	1	0	0	
0	0	0	0	0	0	0	0	
0	0	0	0	0	0	0	1	
0	0	0	0	0	0	0	0	
0	0	0	1	0	0	2	1	
0	0	0	0	1	0	0	3	
0	0	0	0	1	0	0	0	
0	0	0	0	2	0	2	0	
1	0	0	1	1	2	4	0	
0	0	0	0	3	1	1	1	
0	0	0	0	0	2	1	1	
1	0	0	0	0	1	1	1	
0	0	0	0	1	0	2	2	
0	0	0	0	5	1	1	2	
0	0	0	0	1	1	5	4	
0	0	0	1	3	6	5	3	
0	0	0	0	2	2	0	2	
0	0	0	0	2	1	2	1	
0	0	0	0	0	0	0	1	
0	0	0	0	0	0	0	1	
0	0	1	1	1	1	0	0	
0	0	1	1	0	1	0	1	
0	0	0	2	2	0	2	3	
0	0	0	0	6	1	2	3	
0	0	0	0	5	1	6	4	
0	0	0	0	6	3	4	14	
0	0	0	0	9	6	10	22	
0	0	0	0	14	12	9	22	
0	0	1	2	9	9	11	21	
0	0	1	0	28	18	23	39	
0	0	0	1	53	52	43	41	
0	0	0	0	24	29	35	23	
0	0	0	0	14	9	9	14	
0	0	0	0	7	11	6	5	
0	0	0	0	6	12	11	6	
0	1	0	0	8	10	13	13	
0	0	1	0	17	19	25	29	
0	0	0	0	45	46	50	63	
0	0	0	0	102	94	124	155	
0	0	1	0	274	216	300	340	
0	0	0	0	554	445	576	712	
0	0	0	0	1179	975	1249	1486	
0	0	0	0	2835	2395	3082	3460	
0	0	0	0	7383	6179	7684	8141	
0	0	0	0	13495	11036	14277	14785	
0	0	0	0	7889	6560	8184	8903	
0	0	0	0	3183	2761	3350	3850	
0	0	0	0	1246	1023	1351	1626	
0	0	0	0	545	488	650	775	
0	0	0	0	261	261	314	382	
0	0	0	0	131	123	137	168	
0	0	0	0	43	49	55	74	
0	0	0	0	24	24	29	38	
0	0	0	0	13	12	15	18	
0	0	0	0	9	8	6	13	
0	0	0	0	1	11	8	9	
0	0	0	0	11	9	14	10	
0	0	0	1	20	19	17	27	
0	0	0	1	50	44	54	43	
0	0	0	0	23	23	25	32	
0	0	0	0	7	16	13	15	
0	0	1	0	8	10	11	16	
0	0	0	0	8	4	5	15	
0	0	0	0	9	5	13	13	
0	0	0	0	2	1	10	8	
0	0	0	0	1	1	2	2	
0	0	0	0	2	0	3	2	
0	0	0	0	0	0	3	2	
0	0	0	0	0	1	0	0	
0	0	1	0	0	0	0	0	
0	0	0	0	3	0	0	0	
0	0	0	0	2	3	2	1	
0	0	0	1	1	2	3	2	
0	0	0	0	10	5	2	9	
0	0	0	0	1	1	0	1	
0	0	0	0	2	1	2	1	
0	0	0	0	0	1	2	2	
0	0	0	1	3	1	0	4	
0	0	1	0	2	0	0	3	
0	0	0	0	2	0	1	2	
0	0	0	1	1	0	2	0	
0	0	0	0	1	2	2	1	
0	0	0	0	2	0	0	4	
0	0	0	0	0	0	0	3	
0	0	0	0	2	1	0	1	
0	0	0	1	0	0	0	1	
0	0	1	0	1	0	0	1	
0	0	0	0	0	0	0	0	
0	0	0	0	0	1	0	0	
0	0	0	0	0	0	0	0	
0	0	0	0	0	1	0	0	
0	0	0	0	0	0	0	0	
0	0	1	0	0	0	0	0	
0	0	1	0	0	0	1	1	
0	0	0	0	0	0	0	0	
0	0	0	1	0	0	0	0	
0	0	0	0	0	0	1	0	
0	0	0	0	0	0	0	0	
0	0	0	0	0	0	0	1	
0	0	0	0	0	0	0	1	
0	0	0	0	0	0	0	0	
0	0	0	0	0	0	0	2	
0	0	0	0	0	0	1	1	
0	0	0	0	0	0	1	2	
0	0	0	0	0	0	1	2	
0	0	0	0	0	1	0	2	
0	0	1	0	2	0	1	2	
0	0	0	0	1	1	1	2	
0	0	0	0	2	0	2	2	
0	0	0	0	8	3	1	1	
0	0	0	2	7	4	7	4	
0	0	0	0	2	3	2	2	
0	0	1	0	0	1	1	2	
0	0	0	0	0	0	0	2	
0	0	0	0	1	2	0	1	
0	0	0	0	3	0	0	0	
0	0	0	0	2	2	1	1	
0	0	0	0	2	0	0	2	
0	0	0	0	2	0	2	4	
0	0	0	1	4	1	5	6	
0	0	0	1	10	3	8	12	
0	0	0	0	10	4	7	25	
0	0	1	0	12	7	14	22	
0	0	0	0	11	10	14	15	
0	0	0	0	20	9	22	17	
0	0	0	0	49	40	43	41	
0	0	0	0	36	33	36	31	
0	0	0	0	21	21	10	14	
1	0	0	0	8	4	14	8	
0	1	0	0	7	8	2	14	
0	0	0	0	12	12	14	11	
0	0	0	0	13	12	18	30	
1	0	0	0	45	22	51	51	
1	0	0	0	76	65	96	124	
0	0	0	0	203	196	242	290	
0	0	0	0	420	396	483	573	
0	1	1	0	927	790	960	1169	
0	0	0	0	2146	1889	2265	2732	
0	0	0	0	5682	4816	5889	6269	
0	0	0	0	12637	10454	13447	13700	
0	0	0	1	10792	8793	11333	11697	
0	0	1	0	4487	3693	4545	5115	
0	0	0	0	1727	1392	1825	2256	
0	0	0	0	744	618	805	1036	
0	0	0	0	370	327	414	519	
0	0	0	0	181	157	181	226	
0	0	0	0	63	62	63	109	
0	1	0	0	25	25	36	40	
0	0	0	0	9	12	23	22	
0	2	0	0	15	7	8	7	
0	1	0	0	2	2	4	4	
0	8	0	0	4	6	9	9	
1	8	0	0	18	12	13	15	
10	30	0	0	38	33	46	38	
15	76	0	0	46	29	46	39	
29	129	1	0	11	12	13	13	
74	241	0	1	18	5	19	14	
140	443	0	0	13	8	14	13	
292	910	0	0	7	9	8	12	
523	1508	0	0	5	3	4	6	
1011	2513	0	0	0	0	4	5	
1929	4482	0	0	3	0	2	2	
3357	7536	0	0	2	0	1	0	
5624	11952	0	0	2	0	0	2	
9254	17963	0	0	1	0	1	0	
13460	24631	0	0	0	1	1	1	
18252	31392	0	0	0	1	2	1	
21661	35901	1	0	2	1	2	2	
23974	37829	0	0	2	10	3	8	
24216	36812	0	0	2	3	5	5	
23033	34005	1	0	3	0	2	0	
21954	33134	1	0	1	0	2	3	
24735	39893	0	0	2	1	0	1	
37240	61505	0	0	2	1	1	1	
65102	105203	0	0	1	2	2	2	
117596	180792	0	0	0	0	2	5	
199738	288567	0	0	1	0	2	1	
312091	419682	0	0	1	0	0	3	
442620	553467	0	0	0	0	1	2	
568375	660815	0	0	0	0	0	1	
660079	718433	0	0	0	0	0	2	
695041	705867	0	1	1	0	0	0	
667050	631375	0	0	0	0	0	0	
580230	513711	0	0	0	0	0	0	
459712	381272	1	1	0	1	0	0	
332813	257469	1	0	0	0	0	0	
218316	158818	0	0	0	0	0	0	
131932	91836	0	0	0	0	0	0	
73268	49169	0	0	0	0	0	0	
38074	25280	0	0	0	0	0	0	
19046	12456	1	0	0	0	0	0	
9082	6439	0	0	0	0	0	0	
4364	3452	1	0	0	0	1	0	
2383	1976	0	0	0	0	0	0	
1344	1198	0	0	0	0	0	1	
799	724	0	0	1	0	0	1	
519	525	0	0	0	0	0	2	
373	424	0	1	0	0	0	4	
300	319	0	0	0	0	3	1	
236	220	0	0	0	0	1	0	
199	202	0	0	0	1	0	4	
144	170	1	0	3	2	1	1	
137	169	0	0	1	1	3	2	
129	137	0	0	4	1	2	1	
114	101	0	0	2	0	0	4	
86	101	0	0	4	4	4	4	
98	91	0	0	5	7	6	9	
66	80	0	0	3	2	1	3	
63	91	0	0	1	1	4	3	
56	58	0	0	1	0	1	2	
48	56	1	0	0	0	1	1	
49	52	0	0	0	0	2	1	
42	51	0	0	2	0	0	3	
39	52	0	0	1	0	4	3	
23	44	0	0	1	1	2	3	
35	42	0	0	6	2	9	5	
31	35	0	0	12	6	13	10	
32	32	1	0	12	6	14	30	
34	40	0	0	13	12	14	17	
25	29	0	0	16	7	9	23	
21	20	0	0	42	32	29	43	
14	24	0	0	41	30	41	35	
22	22	0	0	20	19	17	27	
14	28	0	0	6	6	13	13	
17	17	0	0	8	1	7	11	
19	18	0	0	5	8	11	17	
12	16	0	0	15	17	19	16	
15	19	0	0	28	30	27	43	
16	33	0	0	62	54	73	97	
7	12	0	0	178	139	186	251	
12	21	0	0	392	342	393	457	
14	12	0	0	738	631	806	957	
12	18	0	0	1596	1443	1797	2046	
7	8	0	0	4348	3653	4408	4925	
17	17	0	0	10171	8595	10921	11405	
9	13	0	0	13312	10975	14055	14647	
7	10	0	0	6139	5100	6356	6823	
7	11	1	0	2405	1978	2435	2959	
6	8	0	0	973	822	1082	1275	
7	6	0	0	449	441	503	585	
6	15	0	0	230	204	238	314	
6	8	0	0	88	86	104	133	
0	8	0	0	46	40	43	65	
0	9	0	0	17	23	16	19	
5	3	0	0	13	14	12	17	
2	5	0	0	8	5	5	3	
1	8	0	0	4	8	5	13	
3	7	0	0	16	14	19	8	
1	7	0	0	33	33	33	21	
1	9	0	0	53	48	52	39	
2	6	0	0	23	12	17	17	
2	2	0	0	9	9	7	17	
2	5	0	0	5	9	11	34	
3	1	0	0	14	6	11	16	
4	4	0	0	8	0	9	8	
3	9	0	0	1	1	7	4	
1	0	0	0	1	0	1	3	
3	1	0	0	0	0	3	2	
1	4	0	0	0	2	0	2	
5	4	0	0	0	0	0	1	
3	3	0	0	1	0	0	1	
3	3	0	0	0	1	0	6	
1	3	0	0	0	0	3	3	
1	3	0	0	2	4	2	7	
3	5	0	0	4	4	5	2	
0	4	0	0	2	0	0	3	
2	3	0	1	1	1	2	1	
1	2	0	0	1	4	3	3	
0	3	0	0	2	0	1	1	
1	1	0	0	2	2	1	0	
0	2	0	0	1	1	0	2	
1	1	0	0	1	2	1	2	
1	0	0	0	0	1	3	2	
2	3	0	0	1	1	0	3	
1	3	0	0	1	0	1	1	
2	5	0	0	0	0	0	0	
1	2	0	0	0	0	0	0	
0	0	0	0	0	0	0	0	
2	1	0	0	0	1	0	0	
2	1	0	0	0	0	0	0	
0	1	0	0	0	0	0	0	
0	1	0	0	0	0	0	0	
1	1	0	0	0	0	0	1	
1	0	0	0	0	0	0	0	
0	1	0	0	0	0	0	0	
1	0	0	0	0	0	1	0	
0	1	0	0	0	0	0	0	
0	2	0	0	0	0	0	0	
1	2	0	0	0	0	0	2	
0	1	0	0	0	1	0	2	
1	1	0	0	0	0	0	1	
0	0	0	0	0	0	1	4	
0	0	0	0	0	1	1	3	
0	2	0	0	1	1	1	1	
0	1	0	0	0	0	1	1	
0	1	0	0	0	1	1	0	
0	0	0	1	1	1	0	3	
1	0	0	0	2	1	3	1	
0	0	0	0	2	0	1	0	
0	2	0	0	3	2	1	3	
0	1	0	0	1	1	1	4	
0	1	0	0	3	2	6	5	
0	2	0	0	2	0	1	5	
0	3	0	0	1	0	1	2	
0	0	0	0	0	1	1	2	
0	0	0	0	0	0	1	1	
0	0	0	0	1	0	0	0	
0	1	0	0	2	2	2	2	
0	0	0	0	2	0	0	3	
0	0	0	0	1	0	0	4	
1	1	0	0	5	0	3	8	
0	1	0	0	9	4	10	10	
1	1	0	0	6	9	10	14	
0	1	0	0	13	13	13	18	
0	0	0	0	7	7	12	16	
0	2	0	0	29	25	27	33	
0	3	0	0	53	44	42	34	
0	1	0	0	22	21	24	27	
1	3	0	0	13	9	8	17	
0	1	0	0	4	9	14	15	
0	0	0	0	5	9	12	11	
0	0	0	0	10	11	12	17	
0	0	0	0	15	20	23	30	
0	1	0	0	47	51	50	74	
0	0	0	0	126	125	108	173	
0	0	0	0	294	243	322	393	
0	0	0	0	554	557	604	792	
0	3	0	0	1212	1093	1320	1631	
0	1	0	0	3058	2646	3291	3713	
0	1	0	0	7830	6640	8223	8659	
0	1	0	0	14133	11450	14891	15461	
0	0	0	0	7944	6771	8348	8792	
1	1	0	0	3128	2595	3345	3891	
0	0	0	0	1363	1020	1311	1634	
0	0	0	0	660	489	621	786	
2	1	0	0	264	265	340	383	
0	0	0	0	123	107	131	172	
0	1	0	0	50	43	57	68	
0	0	0	0	30	22	27	34	
0	1	0	0	16	17	16	21	
0	0	0	0	10	8	11	11	
0	0	0	0	10	3	8	7	
0	1	0	0	9	12	10	16	
0	1	0	0	23	25	20	28	
0	0	0	0	51	47	52	45	
1	0	0	0	19	27	26	34	
0	1	0	0	18	13	16	21	
0	1	0	0	13	10	11	21	
0	0	0	0	13	3	13	24	
0	1	0	0	5	0	10	16	
0	0	0	0	6	2	5	9	
1	0	0	0	1	2	4	2	
0	0	0	0	2	0	1	0	
0	0	0	0	0	0	0	2	
0	0	0	0	0	0	0	3	
0	0	0	0	0	0	2	1	
0	0	0	0	0	1	1	1	
0	0	0	0	1	3	0	2	
0	0	0	0	2	1	1	6	
0	0	0	0	2	5	5	4	
1	2	0	0	1	4	5	4	
0	0	0	0	2	1	1	2	
0	0	0	0	1	1	3	0	
0	1	0	0	1	0	1	0	
0	0	0	0	3	0	0	3	
0	0	0	0	6	3	2	3	
0	0	0	0	0	0	1	1	
1	0	0	0	0	0	0	3	
0	1	0	0	1	0	0	1	
0	0	1	0	0	1	0	3	
0	0	0	0	0	0	0	0	
0	0	0	0	0	0	0	0	
0	0	0	0	0	0	0	0	
0	0	0	0	0	0	0	0	
0	0	0	0	1	1	0	0	
0	0	0	0	0	0	0	1	
0	0	0	0	0	0	0	0	
0	0	0	0	0	0	0	0	
0	0	0	0	0	0	0	0	
0	0	0	0	0	0	0	0	
0	0	0	0	0	0	0	1	
0	0	0	0	0	0	0	0	
0	0	0	0	0	0	0	1	
0	0	0	0	0	0	0	1	
0	0	0	0	0	0	0	2	
0	0	0	0	0	0	0	0	
0	0	0	0	0	0	0	1	
0	0	0	0	3	0	0	3	
0	0	0	0	0	0	1	2	
0	0	0	0	2	0	0	3	
0	0	0	0	0	0	1	0	
0	0	0	0	0	0	0	2	
0	1	0	0	2	0	0	0	
0	0	0	0	2	0	2	2	
0	1	0	0	1	1	2	1	
0	0	0	0	1	0	2	1	
0	0	0	0	5	3	8	6	
0	0	0	0	0	3	1	0	
0	0	0	0	3	1	7	3	
0	0	0	0	1	0	1	0	
0	0	0	0	0	0	0	1	
1	0	0	0	0	0	0	0	
0	0	0	0	1	0	1	1	
0	0	0	0	1	1	1	2	
0	0	0	0	0	1	0	4	
0	0	0	0	0	1	7	5	
0	0	0	0	6	2	8	6	
1	0	0	0	9	1	9	19	
0	0	0	0	11	7	8	14	
0	0	0	0	11	3	14	15	
0	0	0	0	14	9	18	28	
0	0	0	0	51	28	48	38	
0	0	0	0	39	25	33	32	
0	0	0	0	11	14	13	11	
0	0	0	0	10	5	5	4	
0	0	0	0	8	0	3	8	
0	0	0	0	7	0	2	10	
0	1	0	0	10	1	10	15	
0	1	0	0	23	1	22	22	
0	0	0	0	39	1	33	49	
0	0	0	0	98	3	88	112	
0	0	0	0	156	8	148	203	
0	0	0	0	266	11	264	320	
0	1	0	0	469	22	508	578	
0	0	0	0	822	62	871	979	
0	0	0	0	1092	130	1220	1278	
0	0	0	0	1097	114	1232	1356	
1	0	0	0	765	55	783	843	
0	0	0	0	333	22	388	513	
0	0	0	0	206	7	238	305	
0	0	0	0	107	4	120	158	
0	0	0	0	71	1	79	84	
0	0	0	0	22	1	23	47	
0	0	0	0	11	1	16	19	
0	0	0	0	7	0	9	14	
0	0	0	0	1	1	11	8	
0	0	0	0	9	2	7	4	
0	0	0	0	6	5	11	7	
0	0	0	0	23	9	22	15	
0	0	0	0	51	28	37	39	
0	0	0	0	31	19	35	32	
0	0	0	0	16	8	17	27	
0	0	0	0	6	7	8	8	
0	0	0	0	10	1	15	21	
0	0	0	0	5	2	9	17	
0	0	0	0	9	1	7	8	
0	0	1	0	1	0	2	5	
0	0	0	0	0	0	1	4	
1	0	0	0	0	0	1	2	
0	0	0	0	0	0	0	2	
0	0	0	0	1	0	0	0	
0	0	0	0	2	0	3	1	
1	0	0	0	1	3	2	0	
0	0	0	0	3	2	1	4	
0	0	0	0	3	4	9	7	
0	0	0	0	5	0	2	4	
0	0	0	0	0	0	1	3	
0	0	0	0	2	0	1	0	
0	0	0	0	1	0	2	0	
0	0	0	0	0	0	1	2	
0	0	0	0	0	1	4	1	
0	0	0	0	0	1	0	3	
0	0	0	0	1	1	1	1	
0	0	0	0	0	1	1	2	
0	0	0	0	2	0	1	4	
0	0	0	0	1	0	0	0	
1	0	0	0	0	1	0	1	
0	0	0	0	1	0	0	0	
0	0	0	0	1	0	0	1	
0	0	0	0	0	0	0	0	
0	0	0	0	0	0	0	1	
0	0	0	0	0	0	0	0	
0	0	0	0	0	0	0	0	
0	0	0	0	0	0	0	0	
0	0	0	0	0	1	0	0	
0	0	0	0	1	1	0	1	
0	0	0	0	0	0	0	0	
0	0	0	0	0	0	0	0	
0	0	0	0	0	0	0	1	
0	0	0	0	0	0	0	0	
0	0	0	0	0	0	0	1	
0	0	0	0	0	0	0	1	
0	0	0	0	0	0	0	0	
0	0	0	0	1	1	0	2	
0	0	0	0	0	1	2	1	
0	0	0	0	1	0	0	2	
0	0	0	0	0	0	3	2	
0	0	0	0	1	2	1	2	
0	0	0	0	2	0	3	1	
0	0	0	0	2	2	2	0	
0	0	0	0	1	0	3	5	
0	0	0	0	2	1	4	6	
0	0	0	0	5	4	2	5	
0	0	0	0	0	2	3	5	
0	0	0	0	1	0	0	0	
0	0	0	0	0	0	0	1	
0	0	0	0	0	1	1	1	
0	1	0	0	0	0	0	1	
0	0	0	0	0	1	0	2	
0	0	0	0	2	0	3	1	
0	0	0	0	3	0	3	4	
0	0	0	0	6	0	4	6	
0	0	0	0	7	4	6	19	
0	0	0	0	9	6	9	13	
0	0	0	0	13	10	10	15	
0	0	0	0	12	5	13	19	
0	0	0	0	32	31	33	27	
0	0	0	0	48	36	42	34	
0	1	0	0	27	22	18	12	
0	0	0	0	6	10	4	10	
1	0	0	0	6	5	5	7	
0	0	0	0	12	8	10	12	
0	0	0	0	14	19	10	24	
0	0	0	0	17	20	32	40	
0	0	1	0	64	66	65	86	
0	0	0	0	183	166	183	213	
0	0	0	0	364	315	381	436	
0	0	0	0	723	640	780	912	
0	0	0	0	1598	1424	1694	2029	
0	0	0	0	4188	3680	4466	5019	
0	0	0	0	10023	8727	11159	11035	
0	0	0	0	12243	10612	13414	13537	
0	1	0	0	5564	4877	5788	6307	
1	0	0	0	2205	1913	2340	2800	
3	0	0	0	866	783	1028	1208	
1	4	1	0	436	368	502	571	
3	2	0	0	186	171	234	255	
5	15	0	0	95	75	94	123	
9	10	0	0	40	27	38	59	
11	5	0	0	17	12	20	21	
7	4	0	0	13	5	10	15	
7	13	0	0	8	2	9	8	
7	6	0	0	10	6	12	4	
7	13	0	0	16	15	8	17	
4	8	0	0	40	25	33	26	
3	5	0	0	32	34	49	58	
1	0	0	0	16	12	22	32	
2	1	0	0	10	7	16	18	
0	1	0	0	7	13	7	26	
1	1	0	0	5	5	10	20	
0	0	0	0	11	2	6	8	
0	0	0	0	3	2	8	7	
0	0	0	0	2	1	4	4	
0	0	0	0	0	2	2	0	
0	0	0	0	1	0	0	3	
0	0	0	0	0	0	0	2	
0	0	0	0	0	1	1	1	
0	0	0	0	2	3	1	2	
0	0	1	0	1	2	4	6	
0	0	0	0	0	4	2	4	
0	0	0	0	3	3	4	5	
0	0	0	0	3	1	2	3	
0	0	0	1	1	0	2	1	
0	0	0	0	0	1	3	2	
0	0	0	0	0	2	1	2	
0	0	0	0	1	0	0	2	
0	0	0	0	0	0	1	2	
0	1	0	0	2	0	3	2	
0	0	0	0	0	0	0	2	
0	0	0	0	1	0	0	3	
0	0	0	0	1	0	1	1	
0	0	1	0	0	0	0	1	
0	0	0	0	0	0	0	0	
0	0	0	0	0	0	0	1	
0	0	0	0	0	0	0	0	
0	0	0	0	0	0	0	0	
0	0	0	0	0	0	0	1	
0	0	0	0	0	0	0	0	
0	0	0	0	0	1	0	0	
0	0	0	0	0	0	0	0	
0	0	0	0	0	0	0	0	
0	0	0	0	0	1	1	0	
0	0	0	0	1	0	1	1	
0	0	0	0	0	0	0	0	
0	0	0	0	1	0	0	2	
0	0	0	0	0	0	0	1	
0	0	0	0	0	1	0	1	
0	0	0	0	0	0	1	1	
0	0	0	0	0	1	2	3	
0	0	0	0	1	1	1	2	
0	0	0	0	1	1	2	1	
1	0	0	0	0	0	0	1	
0	0	0	0	0	0	2	5	
0	0	0	0	1	0	3	1	
0	0	0	0	3	3	1	4	
0	0	0	0	3	0	3	3	
0	0	0	0	3	4	6	9	
0	0	1	0	5	2	3	10	
0	0	0	0	1	1	1	3	
0	0	1	0	2	2	1	2	
0	0	0	0	2	1	0	1	
0	0	0	0	1	0	0	2	
0	0	0	0	0	0	1	0	
0	0	0	0	2	0	1	0	
0	0	0	0	1	1	2	1	
0	0	0	0	2	2	4	2	
0	0	0	0	1	0	4	3	
0	0	0	0	9	5	6	9	
0	0	0	0	7	4	10	14	
0	0	0	0	10	8	7	18	
0	0	0	0	9	14	9	17	
0	0	0	0	33	17	20	32	
0	0	0	0	56	36	42	43	
0	0	0	0	20	25	21	23	
0	0	0	0	18	10	12	9	
0	0	0	0	1	3	3	13	
0	0	0	0	3	10	8	4	
0	0	0	0	14	7	14	17	
0	0	0	0	21	24	18	37	
0	0	0	0	49	38	50	66	
0	0	0	0	116	124	130	176	
0	0	1	0	275	256	273	376	
0	0	0	0	528	503	602	760	
0	0	0	0	1182	1059	1289	1562	
0	0	0	0	2984	2622	3198	3541	
0	0	0	0	7657	6660	8008	8296	
0	0	0	0	13150	11174	14421	13975	
0	0	0	0	7171	6116	7811	8085	
0	0	0	0	2826	2546	3069	3412	
0	0	0	0	1069	942	1282	1484	
0	0	0	0	575	503	593	713	
0	0	0	0	259	243	289	348	
0	0	0	0	118	112	124	164	
0	0	0	0	43	51	40	74	
0	0	0	0	18	13	18	32	
0	0	0	0	10	7	15	16	
0	0	0	0	9	10	7	13	
0	0	0	0	6	7	6	7	
0	0	0	0	10	14	11	22	
0	0	0	0	35	26	17	26	
0	0	0	0	52	44	41	38	
0	0	0	0	20	30	30	31	
0	0	0	0	5	8	17	21	
0	0	0	0	14	7	13	28	
0	0	0	0	14	6	11	30	
0	0	0	0	5	5	8	11	
0	0	0	1	8	1	7	6	
0	0	0	0	3	2	1	1	
0	0	1	0	2	2	2	1	
0	0	0	0	0	0	2	0	
0	0	0	0	1	0	2	1	
0	0	0	0	0	0	0	1	
0	0	0	0	0	1	0	1	
0	0	0	0	0	0	4	3	
0	0	0	0	2	1	4	2	
0	0	0	0	2	4	7	7	
0	1	0	0	1	0	1	5	
0	0	0	0	1	0	0	4	
0	0	0	0	2	1	2	3	
0	0	0	0	2	2	0	3	
0	0	0	0	4	1	1	2	
0	0	0	0	2	1	1	3	
0	0	0	0	0	0	2	2	
0	0	0	0	1	1	2	1	
0	0	0	0	0	0	1	4	
0	0	0	0	0	1	0	0	
0	0	0	0	1	0	0	1	
0	0	0	0	0	0	0	0	
0	0	0	0	0	0	0	0	
0	0	0	0	0	0	0	0	
0	0	0	0	0	0	0	0	
0	0	0	0	0	0	0	0	
0	0	0	0	0	0	0	0	
0	0	0	0	0	0	0	0	
0	0	0	1	0	0	1	0	
0	0	0	0	0	0	0	0	
0	0	0	0	0	0	0	1	
0	0	0	0	1	0	0	0	
0	0	0	0	0	0	0	1	
0	0	0	0	0	0	0	0	
0	0	0	0	0	0	0	0	
0	0	0	0	0	0	0	1	
0	0	0	0	0	0	1	1	
0	0	0	0	0	0	0	2	
0	0	0	0	1	1	0	2	
0	0	0	0	0	1	0	2	
0	0	0	0	0	0	2	2	
0	1	0	0	0	0	0	0	
0	0	0	0	0	1	2	2	
0	0	0	0	0	0	3	2	
0	0	0	0	0	1	0	3	
0	0	0	0	1	1	1	5	
0	0	0	0	3	6	5	1	
0	0	0	0	6	4	2	4	
0	0	0	0	3	1	0	0	
0	0	0	0	2	0	1	1	
0	0	0	0	0	0	2	3	
1	0	0	0	1	0	0	1	
0	0	0	0	0	0	0	1	
0	0	0	0	2	1	1	1	
0	0	0	0	1	0	3	0	
0	0	0	0	4	2	6	1	
0	0	0	0	5	2	9	6	
0	0	0	0	5	11	12	10	
0	0	0	0	12	5	22	15	
0	0	0	0	11	9	11	20	
0	0	0	0	24	17	14	28	
0	0	0	0	39	39	36	45	
0	0	0	0	37	28	36	26	
0	0	0	0	20	11	16	12	
0	0	1	0	8	8	4	3	
0	0	0	0	2	9	2	12	
0	0	0	0	14	11	7	14	
0	0	0	0	23	13	15	17	
0	0	0	0	30	36	42	50	
0	0	0	0	99	95	95	117	
0	0	0	0	223	202	196	237	
0	0	0	0	429	397	479	575	
0	0	0	0	908	784	977	1194	
0	0	0	0	2100	1936	2291	2653	
0	0	0	0	5433	4900	5897	6018	
0	0	0	0	12068	10417	13195	12841	
0	0	0	0	9098	7837	9949	9879	
0	0	0	0	3826	3359	3970	4273	
0	0	0	0	1541	1239	1572	1765	
0	0	0	0	659	563	760	794	
0	0	0	0	330	280	336	414	
0	0	0	0	174	129	177	180	
0	0	0	0	57	56	68	83	
0	0	0	0	21	24	23	23	
0	0	0	0	14	13	9	19	
0	0	0	0	7	3	11	9	
0	0	0	0	5	8	6	9	
0	0	0	0	7	6	10	10	
0	0	0	0	19	11	19	14	
0	0	0	0	33	36	30	42	
0	0	0	0	26	28	34	31	
0	0	0	0	6	8	21	19	
0	0	0	0	11	8	8	25	
0	0	0	0	9	11	10	19	
0	0	0	0	9	11	8	22	
0	0	0	0	7	0	6	7	
0	0	0	0	2	0	7	6	
0	0	1	0	2	0	2	3	
0	0	0	0	0	1	1	3	
0	0	0	0	0	0	0	0	
0	0	0	0	1	0	1	2	
0	0	0	0	2	0	0	2	
0	0	0	0	0	0	1	2	
0	0	0	0	1	2	2	4	
0	0	0	0	2	3	2	3	
0	0	0	0	3	5	3	2	
0	0	0	0	0	2	0	3	
0	0	1	0	2	3	3	2	
0	0	0	0	2	0	4	1	
0	0	0	0	0	1	0	0	
0	0	0	0	2	0	1	0	
0	0	0	0	0	1	3	1	
0	0	0	0	2	1	3	0	
0	0	0	0	0	1	0	3	
0	0	0	0	2	0	0	3	
0	0	0	0	0	0	1	1	
0	0	0	0	0	0	0	1	
0	0	0	0	0	0	0	1	
0	0	0	0	0	1	0	0	
0	0	0	0	0	0	1	1	
0	0	0	0	0	0	0	0	
0	0	0	0	0	1	1	0	
0	0	0	0	0	0	0	0	
0	1	0	0	0	0	0	0	
0	0	0	0	0	0	0	0	
0	0	0	0	0	0	1	0	
0	2	0	0	0	0	0	1	
0	0	0	0	0	0	0	0	
0	0	0	0	0	0	0	1	
0	1	0	0	0	0	0	0	
0	0	0	0	0	0	0	1	
0	0	0	0	0	0	0	3	
0	0	0	0	0	1	0	2	
0	0	0	0	0	2	2	4	
1	0	0	0	2	2	0	1	
0	0	0	0	0	1	0	4	
0	0	1	0	0	1	0	1	
0	0	0	0	0	1	3	1	
0	0	0	0	2	0	4	2	
0	0	0	0	1	2	3	0	
0	0	0	0	1	1	1	1	
0	0	0	0	2	2	2	4	
0	0	0	0	5	1	4	4	
0	0	0	0	2	2	2	1	
0	0	0	0	0	0	0	0	
0	0	0	0	2	1	0	2	
0	0	0	0	3	0	1	0	
0	0	0	0	0	0	0	0	
0	0	0	0	3	0	0	2	
0	0	0	0	2	0	2	3	
0	0	0	0	5	0	2	2	
0	0	0	0	4	1	2	7	
0	0	1	0	7	2	10	13	
0	0	0	0	9	7	10	15	
0	0	0	0	10	2	10	19	
0	0	0	0	13	15	12	19	
0	0	0	0	30	34	40	21	
0	0	0	0	23	34	28	27	
0	0	0	0	15	23	18	11	
0	0	0	0	8	5	9	9	
0	0	0	0	7	3	7	10	
0	0	0	0	8	7	9	6	
0	0	0	0	16	18	16	14	
0	0	0	0	42	27	32	29	
0	0	0	0	63	46	66	89	
0	0	0	0	153	144	169	188	
0	0	0	0	326	291	333	401	
0	0	0	0	691	606	749	842	
0	0	0	0	1537	1423	1655	1804	
0	0	0	0	3900	3606	4312	4389	
0	0	0	0	9499	8156	10323	10167	
0	0	0	0	10950	9393	11830	11602	
0	0	0	0	4775	4288	5209	5454	
0	0	0	0	1841	1662	2037	2248	
0	0	0	0	766	633	869	1017	
0	0	0	0	407	338	444	468	
0	0	0	0	195	183	228	229	
0	0	0	0	71	65	88	86	
0	0	0	0	34	30	25	49	
0	0	0	0	20	13	13	28	
0	0	0	0	12	7	7	12	
1	0	0	0	6	9	7	8	
0	0	0	0	6	7	7	9	
0	0	0	0	18	15	9	22	
0	0	0	0	35	36	29	32	
0	0	0	0	30	35	38	35	
0	1	0	0	23	13	19	18	
0	0	0	0	11	4	6	22	
0	0	0	0	8	4	9	24	
0	0	0	0	13	4	17	17	
0	0	0	0	6	3	13	18	
0	0	0	0	2	1	2	3	
0	0	0	0	1	2	2	8	
0	0	0	0	0	0	0	1	
0	0	0	0	0	0	0	0	
0	0	0	0	0	0	0	1	
0	0	0	0	0	0	0	2	
0	0	0	0	1	1	1	2	
0	0	0	0	3	2	2	2	
0	0	0	0	3	3	4	5	
0	0	0	0	1	0	8	6	
0	0	0	0	0	1	2	2	
0	0	0	0	1	1	2	2	
0	0	0	0	2	1	3	4	
0	0	0	0	0	0	2	1	
0	0	0	0	1	0	1	2	
0	0	0	0	1	0	2	1	
0	0	0	0	0	0	2	2	
0	0	0	0	1	0	1	4	
0	0	0	0	0	0	1	2	
0	0	0	0	0	0	0	1	
0	0	0	0	0	0	0	1	
0	0	0	0	0	0	1	1	
0	0	0	0	0	0	0	0	
0	0	0	0	0	0	0	0	
0	0	0	0	0	0	0	0	
0	0	0	0	0	0	0	0	
0	0	0	0	0	0	0	1	
0	0	0	0	0	0	0	0	
0	0	0	0	0	0	0	0	
0	0	1	0	2	0	1	1	
0	0	0	0	0	0	0	1	
0	0	1	0	1	0	0	0	
0	0	0	0	0	0	0	1	
0	0	1	0	1	0	0	0	
0	0	0	0	0	0	0	0	
0	0	0	0	0	0	2	2	
0	0	1	0	1	0	0	1	
0	0	0	0	0	0	0	1	
0	0	0	0	0	0	0	0	
0	0	0	0	2	1	4	0	
0	0	0	0	1	0	1	2	
0	0	2	0	3	1	1	3	
0	0	1	0	1	0	2	3	
0	0	1	0	4	1	0	0	
0	0	0	0	3	0	2	1	
0	0	0	0	2	1	2	2	
0	0	0	0	1	2	4	3	
0	0	0	0	2	2	4	2	
0	0	0	0	0	0	3	0	
0	0	1	0	0	0	2	1	
0	0	0	0	0	0	0	1	
0	0	0	0	0	0	0	0	
0	0	0	0	2	1	3	2	
0	0	0	0	1	2	2	3	
0	0	0	0	1	0	3	3	
0	0	1	0	3	3	2	4	
0	0	0	0	6	1	10	19	
0	0	0	0	6	4	12	12	
0	0	0	0	6	13	10	11	
0	0	0	0	8	9	14	12	
0	0	0	0	15	24	19	23	
0	0	0	0	35	34	35	35	
0	0	0	0	20	11	13	12	
0	0	0	0	6	5	6	3	
0	0	0	0	1	8	8	7	
0	0	0	0	5	4	7	14	
0	0	0	0	16	10	12	9	
0	0	0	1	14	17	29	40	
0	0	0	0	43	45	49	66	
0	0	0	0	105	86	116	141	
0	0	0	0	260	228	281	314	
0	0	0	0	492	405	565	649	
0	0	0	0	1048	926	1219	1422	
0	0	0	1	2791	2362	2964	3176	
0	0	0	0	7006	6022	7416	7592	
0	0	0	0	11465	9882	12685	12370	
0	0	0	0	6073	5463	6528	6556	
0	0	0	0	2406	2099	2548	2841	
0	0	0	0	951	879	1040	1176	
0	0	0	0	457	417	492	550	
0	0	0	0	202	204	226	305	
0	0	0	0	99	102	101	128	
1	0	0	0	41	39	41	55	
0	0	0	0	15	10	20	19	
0	0	0	0	6	8	12	15	
0	0	0	0	4	5	9	12	
0	0	0	0	1	4	6	10	
0	0	0	0	11	12	5	4	
0	0	0	0	30	22	25	23	
0	0	0	0	31	47	40	28	
0	0	0	0	23	15	23	23	
0	0	0	0	7	8	12	11	
0	0	0	0	15	3	9	26	
0	0	1	0	4	3	9	22	
0	0	0	0	11	5	17	15	
0	0	0	0	4	2	8	9	
0	0	0	0	3	2	6	5	
0	0	0	0	3	1	1	3	
0	0	0	0	0	0	0	2	
0	0	0	0	0	1	0	0	
0	0	0	0	0	0	2	1	
0	0	0	0	2	0	3	1	
0	0	0	0	0	1	1	3	
0	0	0	0	0	2	1	2	
0	0	0	0	5	3	1	4	
0	0	0	0	4	0	1	2	
0	0	0	0	1	2	0	2	
0	0	0	0	0	0	0	3	
0	0	0	0	1	0	2	3	
0	0	0	0	0	1	0	0	
0	0	0	0	1	0	0	4	
0	0	0	0	0	1	3	0	
0	0	0	0	0	0	1	3	
0	0	0	0	0	0	0	2	
0	0	0	0	0	1	1	1	
0	0	0	0	0	0	0	0	
0	0	0	0	0	0	0	0	
0	0	0	0	0	0	0	1	
0	0	0	0	0	0	0	0	
0	0	0	0	0	0	0	0	
0	0	0	0	0	0	0	0	
0	0	0	0	0	0	0	0	
0	1	0	0	0	0	0	0	
0	0	0	0	0	0	0	0	
1	0	0	0	0	0	0	1	
0	0	0	0	0	0	0	0	
0	0	0	0	0	0	1	0	
0	0	0	0	0	0	0	0	
0	0	0	0	0	0	0	0	
0	0	0	0	0	0	0	0	
0	0	0	0	0	0	0	1	
0	0	0	0	1	0	0	3	
0	0	0	0	0	1	1	0	
0	0	0	0	0	1	3	2	
0	0	0	0	1	1	0	2	
0	0	0	0	0	0	0	0	
0	0	0	0	0	1	1	1	
0	0	0	0	0	1	0	1	
0	0	0	0	0	0	2	0	
0	0	0	0	1	2	5	1	
0	0	0	0	1	3	1	0	
0	0	0	0	1	3	4	4	
0	1	0	0	1	2	5	3	
0	0	0	0	0	1	0	0	
0	0	0	0	0	0	0	2	
0	0	0	0	1	1	1	1	
0	0	0	0	0	0	2	0	
0	0	0	0	0	0	0	1	
0	0	0	0	0	0	0	0	
0	0	0	0	1	1	1	2	
0	0	0	0	2	0	3	2	
0	0	0	0	9	1	8	10	
0	0	0	0	6	1	6	8	
0	0	0	0	10	7	8	17	
0	0	0	0	13	9	9	11	
0	0	0	0	12	17	22	11	
0	0	0	0	42	40	41	43	
0	0	0	0	29	25	22	23	
0	0	0	0	10	12	7	12	
0	0	0	0	9	3	3	9	
0	1	1	0	5	6	3	13	
0	0	0	0	8	9	11	10	
0	0	0	0	13	17	18	17	
0	0	0	0	28	31	34	54	
0	0	0	0	80	75	72	89	
0	0	0	0	198	167	220	250	
0	0	0	0	362	331	417	523	
0	0	0	0	803	673	873	1005	
0	0	0	0	1978	1737	2093	2358	
0	0	0	0	4950	4437	5272	5437	
0	0	0	0	10475	9059	11666	11005	
0	0	2	0	7623	6685	8301	8062	
0	0	0	0	3074	2802	3404	3494	
0	0	0	0	1188	1075	1351	1499	
0	0	0	0	558	491	623	641	
0	0	0	0	273	241	259	343	
0	0	1	0	119	94	159	164	
0	0	0	0	54	40	53	67	
0	0	0	0	19	17	27	34	
0	0	0	0	8	14	12	13	
0	0	0	0	4	13	16	5	
0	0	0	0	2	4	4	6	
0	0	0	0	13	11	6	7	
0	0	0	0	17	13	18	26	
0	0	0	0	33	30	32	27	
0	0	0	0	27	19	25	28	
0	0	0	0	7	7	6	19	
0	0	0	0	11	8	13	15	
0	0	0	0	16	7	10	17	
0	0	0	0	5	5	13	14	
0	0	0	0	10	1	6	8	
0	0	0	0	2	0	3	7	
0	0	0	0	1	0	1	1	
0	0	0	0	2	2	2	0	
0	0	0	0	5	0	0	1	
0	0	0	0	0	1	1	2	
0	0	0	0	2	0	2	1	
0	0	0	0	2	1	3	1	
0	0	0	0	3	0	2	1	
0	0	0	0	2	3	11	3	
0	0	0	0	0	3	4	4	
0	0	0	0	0	1	1	2	
0	0	0	0	2	1	1	3	
0	0	0	0	2	0	1	1	
0	0	0	0	0	1	2	3	
0	0	0	0	1	0	0	0	
0	0	0	0	1	1	0	1	
0	0	0	0	0	0	1	3	
0	0	0	0	1	1	0	3	
0	0	0	0	0	0	0	1	
0	0	0	0	0	0	0	0	
0	0	0	0	0	0	1	1	
0	0	0	0	0	0	0	0	
0	0	0	0	0	0	1	0	
0	0	0	0	0	0	1	0	
0	0	0	0	0	0	0	0	
0	0	0	0	0	0	2	0	
0	0	0	0	0	0	0	0	
0	0	0	0	0	0	0	0	
0	0	0	0	0	0	0	0	
0	0	0	0	1	0	0	0	
0	0	0	0	0	0	0	0	
0	0	0	0	0	0	0	0	
0	0	1	0	0	0	0	0	
0	0	0	0	0	0	0	1	
0	0	0	1	0	0	0	0	
0	0	0	0	1	0	0	2	
0	0	0	0	0	0	1	4	
0	0	0	0	0	0	0	1	
0	0	0	0	4	2	1	1	
0	0	0	0	0	2	1	0	
0	0	0	0	1	0	1	1	
0	0	0	0	0	1	2	1	
0	0	0	0	1	0	1	2	
0	0	0	0	3	0	0	0	
0	0	0	0	1	2	2	2	
0	0	0	0	2	0	2	7	
0	0	0	0	4	2	6	8	
0	0	0	0	3	0	1	1	
0	0	0	0	4	0	3	2	
0	1	0	0	1	0	1	0	
0	0	0	0	0	0	0	0	
0	0	0	0	0	0	0	0	
0	0	0	0	0	0	0	4	
0	0	0	0	2	1	0	4	
0	0	0	0	3	0	1	4	
0	0	0	1	5	1	7	7	
0	0	0	0	4	1	5	12	
0	0	0	0	9	6	8	16	
0	0	0	0	10	4	12	16	
0	0	0	0	15	11	17	9	
0	0	0	0	24	27	26	26	
0	0	0	0	20	19	27	35	
0	0	0	0	14	19	8	8	
0	0	0	0	7	7	9	9	
0	0	0	1	7	4	5	8	
0	0	0	0	8	4	4	11	
0	0	0	0	13	10	17	14	
0	0	0	0	16	14	24	31	
0	0	0	0	53	50	57	86	
0	0	0	0	155	129	151	173	
0	0	0	0	294	268	297	383	
0	0	0	2	644	567	666	688	
0	0	0	0	1362	1155	1433	1655	
0	0	0	1	3471	3153	3762	3814	
0	0	0	0	8312	7199	9013	8465	
0	0	0	0	9063	7930	9986	9301	
0	0	0	0	3943	3612	4367	4406	
0	0	0	0	1488	1309	1618	1781	
0	0	0	0	653	561	746	825	
0	0	0	0	293	280	329	406	
0	0	0	0	168	138	165	204	
0	0	0	1	60	56	76	101	
0	0	0	0	29	27	32	39	
0	0	1	0	13	16	17	17	
0	0	0	0	9	7	10	10	
0	0	0	1	9	6	5	1	
0	0	0	0	5	4	4	8	
0	0	0	0	12	9	11	13	
0	0	0	0	28	24	21	26	
0	0	0	0	34	34	33	33	
0	0	0	0	11	13	9	18	
0	0	0	0	2	8	17	19	
0	0	0	0	3	5	9	22	
0	0	0	0	3	4	4	13	
0	0	0	0	0	3	3	2	
0	0	0	0	1	0	3	7	
0	0	0	0	0	0	4	2	
0	0	0	0	1	0	1	2	
0	0	0	0	1	0	0	1	
0	0	0	0	0	0	2	2	
0	0	0	0	3	0	0	0	
0	0	0	0	2	2	0	0	
0	0	1	0	0	1	3	2	
0	0	0	0	2	3	3	4	
0	0	0	2	2	4	2	6	
0	0	0	0	2	2	2	2	
0	0	0	0	0	0	1	3	
0	0	0	0	1	3	4	0	
0	0	0	0	0	1	1	0	
0	0	0	0	0	0	1	0	
0	0	0	0	1	0	1	0	
0	0	0	0	2	0	0	3	
0	0	0	0	1	0	0	3	
0	0	0	0	1	0	1	2	
0	0	0	1	0	0	0	0	
0	0	0	0	0	0	1	0	
0	0	0	0	0	0	0	0	
0	0	0	0	0	0	0	1	
0	0	0	0	0	0	0	0	
0	0	0	0	0	0	0	0	
0	0	0	0	1	1	0	0	
0	0	0	0	0	0	0	0	
0	0	0	0	0	1	0	0	
0	0	0	0	0	0	0	0	
0	0	0	0	0	0	0	0	
1	0	0	0	0	0	1	0	
0	0	0	0	1	0	0	0	
0	0	0	0	0	1	0	0	
0	0	0	0	0	0	0	0	
0	0	0	0	1	0	0	1	
0	0	0	0	0	0	0	2	
0	0	0	0	0	0	0	2	
0	0	0	0	0	0	0	2	
0	0	0	0	1	0	2	1	
0	0	0	2	0	2	0	4	
0	0	0	0	2	1	0	0	
0	0	0	0	0	0	1	0	
0	1	0	0	1	3	1	3	
0	0	0	0	0	2	1	1	
0	0	0	0	0	1	1	0	
0	0	0	0	1	1	1	0	
0	0	0	0	3	3	1	3	
0	0	0	0	1	0	1	2	
0	0	0	0	3	1	3	1	
0	0	0	0	1	1	0	0	
0	0	0	0	0	0	0	2	
0	0	0	0	0	0	0	1	
0	0	0	0	3	0	1	1	
0	0	0	0	2	1	1	1	
1	0	0	0	1	1	1	1	
0	0	0	0	2	2	2	0	
0	0	0	0	1	5	6	11	
0	0	0	0	10	5	5	12	
0	0	0	0	11	9	11	12	
0	0	1	0	4	10	12	9	
0	0	0	0	18	23	24	16	
0	0	0	0	25	30	38	33	
0	0	0	0	19	23	20	7	
0	0	0	0	6	10	5	13	
0	0	0	0	5	2	8	5	
0	0	0	0	5	7	4	7	
0	0	0	0	4	8	17	10	
0	0	0	0	15	16	21	30	
0	0	0	0	41	44	37	48	
0	0	0	0	97	80	115	143	
